Frequency (Hz)	Level (dB)
43.066406	-21.281111
86.132812	-19.151882
129.199219	-18.863180
172.265625	-18.990591
215.332031	-19.475803
258.398438	-20.121847
301.464844	-20.775986
344.531250	-21.745306
387.597656	-22.356070
430.664062	-23.191221
473.730469	-23.987091
516.796875	-24.728809
559.863281	-25.437075
602.929688	-25.726095
645.996094	-26.375149
689.062500	-27.303125
732.128906	-27.687876
775.195312	-28.519051
818.261719	-29.127758
861.328125	-29.741274
904.394531	-30.385138
947.460938	-31.001154
990.527344	-31.560215
1033.593750	-31.915911
1076.660156	-32.367527
1119.726562	-33.072239
1162.792969	-33.687160
1205.859375	-34.088112
1248.925781	-34.449852
1291.992188	-35.321922
1335.058594	-35.695866
1378.125000	-35.686214
1421.191406	-36.508331
1464.257812	-37.203808
1507.324219	-37.448868
1550.390625	-37.877960
1593.457031	-38.333664
1636.523438	-39.013218
1679.589844	-39.232441
1722.656250	-39.542248
1765.722656	-40.157768
1808.789062	-40.536057
1851.855469	-40.828384
1894.921875	-41.753220
1937.988281	-41.919083
1981.054688	-42.103477
2024.121094	-42.597626
2067.187500	-43.013943
2110.253906	-43.266735
2153.320312	-43.669777
2196.386719	-44.070358
2239.453125	-44.241787
2282.519531	-44.428875
2325.585938	-44.746773
2368.652344	-45.240173
2411.718750	-45.768814
2454.785156	-46.393780
2497.851562	-46.596218
2540.917969	-46.585918
2583.984375	-46.942028
2627.050781	-47.253162
2670.117188	-47.678082
2713.183594	-48.017498
2756.250000	-48.396736
2799.316406	-48.337269
2842.382812	-48.866703
2885.449219	-49.207668
2928.515625	-49.395309
2971.582031	-49.760056
3014.648438	-50.118668
3057.714844	-50.378784
3100.781250	-50.571232
3143.847656	-50.624870
3186.914062	-50.900875
3229.980469	-51.024670
3273.046875	-51.559265
3316.113281	-51.866993
3359.179688	-52.025917
3402.246094	-52.224598
3445.312500	-52.570515
3488.378906	-52.994148
3531.445312	-52.863949
3574.511719	-53.268490
3617.578125	-53.595974
3660.644531	-53.606350
3703.710938	-53.789238
3746.777344	-54.136967
3789.843750	-54.546516
3832.910156	-54.656536
3875.976562	-54.715797
3919.042969	-55.257877
3962.109375	-55.620602
4005.175781	-55.737572
4048.242188	-55.544025
4091.308594	-55.902050
4134.375000	-56.015114
4177.441406	-56.262943
4220.507812	-56.536087
4263.574219	-56.723824
4306.640625	-57.075562
4349.707031	-57.395088
4392.773438	-57.538727
4435.839844	-57.598179
4478.906250	-57.464417
4521.972656	-58.037407
4565.039062	-58.200161
4608.105469	-58.258358
4651.171875	-58.491520
4694.238281	-58.468525
4737.304688	-58.632004
4780.371094	-58.735760
4823.437500	-59.028728
4866.503906	-59.148335
4909.570312	-59.464905
4952.636719	-59.619129
4995.703125	-59.798103
5038.769531	-60.096127
5081.835938	-60.272079
5124.902344	-60.505753
5167.968750	-60.694809
5211.035156	-60.942734
5254.101562	-61.049557
5297.167969	-61.076412
5340.234375	-60.939201
5383.300781	-60.985352
5426.367188	-61.306587
5469.433594	-61.430176
5512.500000	-61.870522
5555.566406	-62.052952
5598.632812	-62.354725
5641.699219	-62.279049
5684.765625	-62.230553
5727.832031	-62.682262
5770.898438	-62.879581
5813.964844	-62.912102
5857.031250	-62.933830
5900.097656	-63.020035
5943.164062	-63.342693
5986.230469	-63.211731
6029.296875	-63.231293
6072.363281	-63.742058
6115.429688	-63.800949
6158.496094	-63.865356
6201.562500	-64.250137
6244.628906	-64.226158
6287.695312	-64.078506
6330.761719	-64.356026
6373.828125	-64.557465
6416.894531	-64.468803
6459.960938	-64.637184
6503.027344	-64.635262
6546.093750	-65.018372
6589.160156	-65.446259
6632.226562	-65.638390
6675.292969	-65.771461
6718.359375	-65.765221
6761.425781	-65.941177
6804.492188	-65.668686
6847.558594	-65.689354
6890.625000	-65.953255
6933.691406	-66.138336
6976.757812	-66.269760
7019.824219	-66.419655
7062.890625	-66.633499
7105.957031	-66.629021
7149.023438	-66.681488
7192.089844	-66.662468
7235.156250	-66.955795
7278.222656	-67.054901
7321.289062	-67.108650
7364.355469	-67.235229
7407.421875	-67.185516
7450.488281	-67.391418
7493.554688	-67.568085
7536.621094	-67.657158
7579.687500	-67.773689
7622.753906	-67.678253
7665.820312	-67.834358
7708.886719	-68.025558
7751.953125	-67.821548
7795.019531	-68.164032
7838.085938	-68.090042
7881.152344	-68.148514
7924.218750	-68.456329
7967.285156	-68.445145
8010.351562	-68.803192
8053.417969	-68.849174
8096.484375	-68.769493
8139.550781	-68.778938
8182.617188	-68.965080
8225.683594	-68.964966
8268.750000	-69.206955
8311.816406	-69.186249
8354.882812	-69.412033
8397.949219	-69.620293
8441.015625	-69.497185
8484.082031	-69.726341
8527.148438	-69.834915
8570.214844	-69.858505
8613.281250	-69.954315
8656.347656	-69.807594
8699.414062	-70.041794
8742.480469	-69.940948
8785.546875	-70.083809
8828.613281	-70.288300
8871.679688	-70.317413
8914.746094	-70.336143
8957.812500	-70.461609
9000.878906	-70.624588
9043.945312	-70.871712
9087.011719	-70.895660
9130.078125	-71.046089
9173.144531	-70.785698
9216.210938	-70.759354
9259.277344	-70.863037
9302.343750	-70.766289
9345.410156	-71.044113
9388.476562	-71.095467
9431.542969	-71.358253
9474.609375	-71.553947
9517.675781	-71.462158
9560.742188	-71.141983
9603.808594	-71.195480
9646.875000	-71.433418
9689.941406	-72.030190
9733.007812	-72.071815
9776.074219	-72.345673
9819.140625	-72.183372
9862.207031	-71.698135
9905.273438	-71.749031
9948.339844	-71.951057
9991.406250	-72.065872
10034.472656	-72.246490
10077.539062	-72.106888
10120.605469	-72.363068
10163.671875	-72.298492
10206.738281	-72.301125
10249.804688	-72.507706
10292.871094	-72.608528
10335.937500	-72.497467
10379.003906	-72.422859
10422.070312	-72.428566
10465.136719	-72.704330
10508.203125	-73.032433
10551.269531	-72.919838
10594.335938	-72.886604
10637.402344	-72.960258
10680.468750	-73.066750
10723.535156	-73.379990
10766.601562	-73.372856
10809.667969	-73.492447
10852.734375	-73.433777
10895.800781	-73.580200
10938.867188	-73.556778
10981.933594	-73.468102
11025.000000	-73.678169
11068.066406	-73.750237
11111.132812	-73.694862
11154.199219	-73.551826
11197.265625	-73.980255
11240.332031	-73.951988
11283.398438	-74.082756
11326.464844	-74.161362
11369.531250	-73.900932
11412.597656	-73.765434
11455.664062	-74.110840
11498.730469	-74.310135
11541.796875	-74.235405
11584.863281	-74.460007
11627.929688	-74.362381
11670.996094	-74.337425
11714.062500	-74.558853
11757.128906	-74.389389
11800.195312	-74.302635
11843.261719	-74.405945
11886.328125	-74.669441
11929.394531	-74.576714
11972.460938	-74.654083
12015.527344	-74.665321
12058.593750	-74.673584
12101.660156	-74.669006
12144.726562	-74.777321
12187.792969	-74.937675
12230.859375	-74.987053
12273.925781	-74.940742
12316.992188	-75.110977
12360.058594	-75.160110
12403.125000	-75.312157
12446.191406	-75.616684
12489.257812	-75.415932
12532.324219	-75.141983
12575.390625	-75.306801
12618.457031	-75.469704
12661.523438	-75.688026
12704.589844	-75.745842
12747.656250	-75.648079
12790.722656	-75.775970
12833.789062	-75.943100
12876.855469	-75.663429
12919.921875	-75.439194
12962.988281	-75.892105
13006.054688	-75.871330
13049.121094	-75.723106
13092.187500	-76.011963
13135.253906	-76.142754
13178.320312	-75.996284
13221.386719	-76.122810
13264.453125	-76.131958
13307.519531	-76.512955
13350.585938	-76.447426
13393.652344	-76.086967
13436.718750	-76.184784
13479.785156	-76.199883
13522.851562	-76.263069
13565.917969	-76.548157
13608.984375	-76.592690
13652.050781	-76.574928
13695.117188	-76.540642
13738.183594	-76.334358
13781.250000	-76.635468
13824.316406	-76.581665
13867.382812	-76.685127
13910.449219	-76.867981
13953.515625	-76.659111
13996.582031	-77.051140
14039.648438	-77.103241
14082.714844	-76.822746
14125.781250	-76.810692
14168.847656	-77.024338
14211.914062	-77.233971
14254.980469	-77.279884
14298.046875	-77.257393
14341.113281	-77.148438
14384.179688	-77.161072
14427.246094	-77.220657
14470.312500	-77.153046
14513.378906	-77.230255
14556.445312	-77.269951
14599.511719	-77.675285
14642.578125	-77.529556
14685.644531	-77.483978
14728.710938	-77.605240
14771.777344	-77.964401
14814.843750	-78.141228
14857.910156	-77.693787
14900.976562	-77.497093
14944.042969	-77.624214
14987.109375	-77.859535
15030.175781	-77.873093
15073.242188	-78.013451
15116.308594	-78.024612
15159.375000	-77.890327
15202.441406	-77.932976
15245.507812	-78.196373
15288.574219	-78.315712
15331.640625	-78.156265
15374.707031	-78.254753
15417.773438	-78.182556
15460.839844	-78.255386
15503.906250	-78.053741
15546.972656	-78.185913
15590.039062	-78.291458
15633.105469	-78.561256
15676.171875	-78.289139
15719.238281	-78.341583
15762.304688	-78.648972
15805.371094	-78.705223
15848.437500	-78.522644
15891.503906	-78.767097
15934.570312	-78.939018
15977.636719	-78.740211
16020.703125	-78.643539
16063.769531	-78.803192
16106.835938	-79.175453
16149.902344	-78.996681
16192.968750	-78.789200
16236.035156	-78.878632
16279.101562	-79.017120
16322.167969	-78.645523
16365.234375	-78.583878
16408.300781	-78.731270
16451.367188	-79.002625
16494.433594	-79.189163
16537.500000	-79.240173
16580.566406	-79.151421
16623.632812	-79.253372
16666.699219	-79.378983
16709.765625	-79.436630
16752.832031	-79.373695
16795.898438	-79.375473
16838.964844	-79.451012
16882.031250	-79.362366
16925.097656	-79.474495
16968.164062	-79.733742
17011.230469	-79.553719
17054.296875	-79.503708
17097.363281	-79.643761
17140.429688	-79.577469
17183.496094	-79.452492
17226.562500	-79.608994
17269.628906	-79.974640
17312.695312	-79.851051
17355.761719	-79.850700
17398.828125	-79.986382
17441.894531	-79.980637
17484.960938	-79.774963
17528.027344	-80.008919
17571.093750	-80.195831
17614.160156	-80.208900
17657.226562	-80.124153
17700.292969	-80.142448
17743.359375	-80.196136
17786.425781	-80.198112
17829.492188	-80.296829
17872.558594	-80.164841
17915.625000	-80.368073
17958.691406	-80.570061
18001.757812	-80.531731
18044.824219	-80.418655
18087.890625	-80.547539
18130.957031	-80.755577
18174.023438	-80.478218
18217.089844	-80.387466
18260.156250	-80.829002
18303.222656	-80.979752
18346.289062	-80.869286
18389.355469	-80.879753
18432.421875	-81.030724
18475.488281	-81.158325
18518.554688	-81.067085
18561.621094	-81.025291
18604.687500	-80.944229
18647.753906	-80.991302
18690.820312	-81.147026
18733.886719	-81.284531
18776.953125	-81.208473
18820.019531	-81.113342
18863.085938	-81.011009
18906.152344	-81.213150
18949.218750	-81.117455
18992.285156	-81.100815
19035.351562	-81.264549
19078.417969	-81.190811
19121.484375	-81.100151
19164.550781	-81.302727
19207.617188	-81.318810
19250.683594	-81.271500
19293.750000	-81.348305
19336.816406	-81.661659
19379.882812	-81.833084
19422.949219	-81.746338
19466.015625	-81.653389
19509.082031	-81.725655
19552.148438	-81.505516
19595.214844	-81.525177
19638.281250	-81.666496
19681.347656	-81.691643
19724.414062	-81.833847
19767.480469	-82.089241
19810.546875	-81.780174
19853.613281	-81.891365
19896.679688	-81.966179
19939.746094	-82.101410
19982.812500	-82.129066
20025.878906	-82.348923
20068.945312	-82.409622
20112.011719	-82.181465
20155.078125	-82.450813
20198.144531	-82.389984
20241.210938	-82.212395
20284.277344	-82.502983
20327.343750	-82.516327
20370.410156	-82.524033
20413.476562	-82.404510
20456.542969	-82.380402
20499.609375	-82.614166
20542.675781	-82.699104
20585.742188	-82.755875
20628.808594	-82.832260
20671.875000	-82.853691
20714.941406	-82.791939
20758.007812	-82.703026
20801.074219	-82.834190
20844.140625	-83.020561
20887.207031	-83.219460
20930.273438	-83.306099
20973.339844	-83.044876
21016.406250	-83.072060
21059.472656	-83.375999
21102.539062	-83.140854
21145.605469	-82.955002
21188.671875	-83.305038
21231.738281	-83.521355
21274.804688	-83.566101
21317.871094	-83.497917
21360.937500	-83.340866
21404.003906	-83.305046
21447.070312	-83.491692
21490.136719	-83.563110
21533.203125	-83.641266
21576.269531	-83.822105
21619.335938	-83.849686
21662.402344	-83.762718
21705.468750	-84.012245
21748.535156	-83.905594
21791.601562	-84.109253
21834.667969	-84.342728
21877.734375	-84.604805
21920.800781	-84.525856
21963.867188	-84.324661
22006.933594	-84.561134
