Frequency (Hz)	Level (dB)
43.066406	-21.426418
86.132812	-18.706198
129.199219	-17.636499
172.265625	-17.009424
215.332031	-16.876585
258.398438	-16.998932
301.464844	-17.285259
344.531250	-17.882814
387.597656	-18.233265
430.664062	-18.883196
473.730469	-19.513798
516.796875	-20.104259
559.863281	-20.708891
602.929688	-20.914469
645.996094	-21.489481
689.062500	-22.327639
732.128906	-22.649990
775.195312	-23.441446
818.261719	-24.008186
861.328125	-24.574718
904.394531	-25.170929
947.460938	-25.776810
990.527344	-26.313314
1033.593750	-26.643436
1076.660156	-27.090261
1119.726562	-27.774275
1162.792969	-28.370890
1205.859375	-28.721239
1248.925781	-29.072641
1291.992188	-29.936815
1335.058594	-30.296791
1378.125000	-30.273317
1421.191406	-31.065254
1464.257812	-31.743536
1507.324219	-31.984573
1550.390625	-32.412395
1593.457031	-32.858719
1636.523438	-33.538906
1679.589844	-33.728672
1722.656250	-34.020878
1765.722656	-34.636185
1808.789062	-35.027740
1851.855469	-35.283875
1894.921875	-36.196602
1937.988281	-36.341431
1981.054688	-36.540257
2024.121094	-37.020218
2067.187500	-37.413635
2110.253906	-37.662819
2153.320312	-38.044586
2196.386719	-38.453869
2239.453125	-38.608887
2282.519531	-38.789062
2325.585938	-39.100338
2368.652344	-39.578213
2411.718750	-40.122288
2454.785156	-40.752068
2497.851562	-40.925999
2540.917969	-40.907974
2583.984375	-41.242455
2627.050781	-41.554230
2670.117188	-41.958988
2713.183594	-42.295544
2756.250000	-42.662952
2799.316406	-42.583687
2842.382812	-43.131325
2885.449219	-43.466831
2928.515625	-43.649841
2971.582031	-44.022335
3014.648438	-44.369850
3057.714844	-44.625702
3100.781250	-44.804295
3143.847656	-44.829372
3186.914062	-45.075523
3229.980469	-45.237602
3273.046875	-45.817692
3316.113281	-46.070576
3359.179688	-46.207626
3402.246094	-46.395569
3445.312500	-46.737232
3488.378906	-47.163326
3531.445312	-47.014881
3574.511719	-47.422562
3617.578125	-47.768322
3660.644531	-47.725899
3703.710938	-47.898685
3746.777344	-48.282249
3789.843750	-48.652729
3832.910156	-48.811424
3875.976562	-48.886829
3919.042969	-49.413532
3962.109375	-49.757610
4005.175781	-49.860256
4048.242188	-49.676311
4091.308594	-50.060589
4134.375000	-50.108276
4177.441406	-50.396614
4220.507812	-50.690910
4263.574219	-50.840752
4306.640625	-51.174015
4349.707031	-51.448273
4392.773438	-51.543110
4435.839844	-51.670971
4478.906250	-51.543335
4521.972656	-52.112972
4565.039062	-52.297516
4608.105469	-52.368645
4651.171875	-52.639866
4694.238281	-52.568302
4737.304688	-52.717117
4780.371094	-52.850872
4823.437500	-53.175629
4866.503906	-53.311314
4909.570312	-53.596458
4952.636719	-53.714119
4995.703125	-53.911190
5038.769531	-54.300365
5081.835938	-54.408844
5124.902344	-54.648090
5167.968750	-54.788242
5211.035156	-55.008606
5254.101562	-55.216206
5297.167969	-55.288528
5340.234375	-55.115211
5383.300781	-55.106274
5426.367188	-55.447376
5469.433594	-55.657623
5512.500000	-56.053555
5555.566406	-56.250359
5598.632812	-56.528461
5641.699219	-56.401325
5684.765625	-56.401604
5727.832031	-56.849365
5770.898438	-57.082211
5813.964844	-57.175896
5857.031250	-57.149437
5900.097656	-57.242702
5943.164062	-57.447941
5986.230469	-57.363121
6029.296875	-57.524986
6072.363281	-57.970169
6115.429688	-58.022724
6158.496094	-58.074596
6201.562500	-58.539398
6244.628906	-58.617687
6287.695312	-58.388840
6330.761719	-58.693321
6373.828125	-58.851982
6416.894531	-58.834423
6459.960938	-59.009682
6503.027344	-59.142902
6546.093750	-59.416061
6589.160156	-59.805824
6632.226562	-59.978664
6675.292969	-60.155869
6718.359375	-60.172913
6761.425781	-60.439960
6804.492188	-60.220524
6847.558594	-60.177818
6890.625000	-60.421207
6933.691406	-60.679958
6976.757812	-60.792976
7019.824219	-60.906506
7062.890625	-61.091026
7105.957031	-61.239899
7149.023438	-61.340885
7192.089844	-61.276672
7235.156250	-61.470928
7278.222656	-61.603500
7321.289062	-61.629925
7364.355469	-61.787754
7407.421875	-61.807331
7450.488281	-62.073498
7493.554688	-62.339764
7536.621094	-62.285114
7579.687500	-62.454372
7622.753906	-62.542824
7665.820312	-62.658768
7708.886719	-62.708771
7751.953125	-62.531506
7795.019531	-62.881657
7838.085938	-62.936699
7881.152344	-63.031460
7924.218750	-63.286915
7967.285156	-63.178730
8010.351562	-63.575691
8053.417969	-63.645557
8096.484375	-63.591091
8139.550781	-63.744968
8182.617188	-64.005653
8225.683594	-64.107468
8268.750000	-64.215843
8311.816406	-64.215797
8354.882812	-64.262337
8397.949219	-64.472809
8441.015625	-64.628029
8484.082031	-64.809570
8527.148438	-64.906754
8570.214844	-64.899780
8613.281250	-65.067917
8656.347656	-65.125298
8699.414062	-65.542389
8742.480469	-65.189507
8785.546875	-65.317047
8828.613281	-65.546791
8871.679688	-65.589500
8914.746094	-65.619110
8957.812500	-65.821564
9000.878906	-66.034332
9043.945312	-66.263680
9087.011719	-66.303749
9130.078125	-66.359581
9173.144531	-66.127747
9216.210938	-66.214058
9259.277344	-66.408958
9302.343750	-66.359917
9345.410156	-66.676346
9388.476562	-66.838142
9431.542969	-67.055763
9474.609375	-67.216606
9517.675781	-67.158257
9560.742188	-66.959015
9603.808594	-66.946365
9646.875000	-67.242737
9689.941406	-67.732674
9733.007812	-67.959480
9776.074219	-68.094505
9819.140625	-67.901688
9862.207031	-67.471725
9905.273438	-67.596207
9948.339844	-67.906387
9991.406250	-68.004143
10034.472656	-68.183708
10077.539062	-68.178246
10120.605469	-68.333908
10163.671875	-68.249977
10206.738281	-68.215179
10249.804688	-68.360069
10292.871094	-68.585381
10335.937500	-68.643150
10379.003906	-68.539032
10422.070312	-68.662170
10465.136719	-69.005394
10508.203125	-69.225555
10551.269531	-69.062874
10594.335938	-68.972282
10637.402344	-69.148537
10680.468750	-69.342697
10723.535156	-69.750595
10766.601562	-69.832565
10809.667969	-69.933228
10852.734375	-69.933311
10895.800781	-70.034447
10938.867188	-70.079201
10981.933594	-70.042633
11025.000000	-70.381523
11068.066406	-70.398720
11111.132812	-70.389229
11154.199219	-70.165237
11197.265625	-70.401054
11240.332031	-70.417892
11283.398438	-70.576576
11326.464844	-70.702728
11369.531250	-70.591980
11412.597656	-70.473503
11455.664062	-70.780624
11498.730469	-71.124779
11541.796875	-71.011208
11584.863281	-71.251961
11627.929688	-71.309448
11670.996094	-71.388023
11714.062500	-71.569481
11757.128906	-71.374031
11800.195312	-71.384689
11843.261719	-71.384979
11886.328125	-71.500282
11929.394531	-71.541916
11972.460938	-71.782021
12015.527344	-71.901924
12058.593750	-71.888184
12101.660156	-71.811394
12144.726562	-71.749474
12187.792969	-71.907410
12230.859375	-71.961105
12273.925781	-72.186546
12316.992188	-72.425919
12360.058594	-72.428711
12403.125000	-72.506439
12446.191406	-72.753654
12489.257812	-72.754356
12532.324219	-72.542809
12575.390625	-72.546432
12618.457031	-72.811440
12661.523438	-72.996246
12704.589844	-73.065506
12747.656250	-73.162788
12790.722656	-73.195473
12833.789062	-73.159721
12876.855469	-73.130653
12919.921875	-72.860878
12962.988281	-73.356033
13006.054688	-73.372757
13049.121094	-73.271790
13092.187500	-73.535843
13135.253906	-73.804451
13178.320312	-73.675987
13221.386719	-73.687553
13264.453125	-73.689896
13307.519531	-74.102615
13350.585938	-74.224434
13393.652344	-73.833664
13436.718750	-73.859177
13479.785156	-73.966217
13522.851562	-73.983330
13565.917969	-74.371956
13608.984375	-74.395668
13652.050781	-74.404182
13695.117188	-74.419601
13738.183594	-74.270958
13781.250000	-74.378693
13824.316406	-74.463158
13867.382812	-74.589630
13910.449219	-74.853806
13953.515625	-74.716507
13996.582031	-74.926674
14039.648438	-75.044250
14082.714844	-75.015800
14125.781250	-75.158539
14168.847656	-75.408226
14211.914062	-75.525520
14254.980469	-75.349770
14298.046875	-75.469574
14341.113281	-75.559868
14384.179688	-75.591438
14427.246094	-75.592659
14470.312500	-75.500870
14513.378906	-75.571938
14556.445312	-75.582619
14599.511719	-75.973038
14642.578125	-75.915703
14685.644531	-75.943253
14728.710938	-76.069984
14771.777344	-76.270020
14814.843750	-76.352859
14857.910156	-76.110779
14900.976562	-75.815887
14944.042969	-75.840149
14987.109375	-76.249718
15030.175781	-76.397331
15073.242188	-76.360832
15116.308594	-76.341988
15159.375000	-76.497620
15202.441406	-76.552124
15245.507812	-76.671928
15288.574219	-76.814499
15331.640625	-76.791985
15374.707031	-76.892403
15417.773438	-76.888741
15460.839844	-76.853363
15503.906250	-76.885239
15546.972656	-77.042931
15590.039062	-77.101219
15633.105469	-77.414413
15676.171875	-77.087486
15719.238281	-77.108292
15762.304688	-77.230705
15805.371094	-77.319305
15848.437500	-77.444305
15891.503906	-77.549828
15934.570312	-77.593933
15977.636719	-77.516998
16020.703125	-77.627914
16063.769531	-77.659546
16106.835938	-77.979408
16149.902344	-77.784889
16192.968750	-77.806358
16236.035156	-77.867752
16279.101562	-78.075989
16322.167969	-77.783348
16365.234375	-77.656242
16408.300781	-77.855225
16451.367188	-78.055519
16494.433594	-78.115059
16537.500000	-78.268936
16580.566406	-78.273987
16623.632812	-78.229263
16666.699219	-78.229736
16709.765625	-78.450264
16752.832031	-78.604691
16795.898438	-78.521362
16838.964844	-78.689301
16882.031250	-78.661140
16925.097656	-78.683449
16968.164062	-78.865181
17011.230469	-78.709999
17054.296875	-78.655243
17097.363281	-78.768127
17140.429688	-78.738129
17183.496094	-78.657150
17226.562500	-78.811111
17269.628906	-79.100815
17312.695312	-79.201744
17355.761719	-79.265358
17398.828125	-79.317734
17441.894531	-79.249001
17484.960938	-79.112579
17528.027344	-79.373116
17571.093750	-79.502495
17614.160156	-79.458626
17657.226562	-79.576546
17700.292969	-79.616043
17743.359375	-79.583061
17786.425781	-79.606552
17829.492188	-79.638893
17872.558594	-79.646889
17915.625000	-79.753990
17958.691406	-79.698433
18001.757812	-79.939949
18044.824219	-80.018661
18087.890625	-80.022713
18130.957031	-80.156349
18174.023438	-80.040718
18217.089844	-79.891968
18260.156250	-80.182999
18303.222656	-80.442719
18346.289062	-80.429977
18389.355469	-80.323311
18432.421875	-80.469704
18475.488281	-80.648346
18518.554688	-80.597580
18561.621094	-80.569672
18604.687500	-80.562767
18647.753906	-80.527786
18690.820312	-80.791649
18733.886719	-80.806641
18776.953125	-80.817192
18820.019531	-80.815384
18863.085938	-80.673157
18906.152344	-80.928246
18949.218750	-80.935173
18992.285156	-80.986465
19035.351562	-80.942398
19078.417969	-80.778488
19121.484375	-80.797325
19164.550781	-80.983902
19207.617188	-81.058449
19250.683594	-81.129112
19293.750000	-81.198212
19336.816406	-81.514053
19379.882812	-81.656570
19422.949219	-81.482803
19466.015625	-81.375610
19509.082031	-81.463928
19552.148438	-81.314667
19595.214844	-81.339012
19638.281250	-81.409851
19681.347656	-81.432640
19724.414062	-81.822006
19767.480469	-82.103065
19810.546875	-81.575226
19853.613281	-81.622917
19896.679688	-81.926353
19939.746094	-82.145393
19982.812500	-82.120148
20025.878906	-82.075035
20068.945312	-82.072975
20112.011719	-82.173950
20155.078125	-82.332069
20198.144531	-82.127846
20241.210938	-82.168236
20284.277344	-82.483192
20327.343750	-82.384598
20370.410156	-82.406700
20413.476562	-82.518921
20456.542969	-82.592300
20499.609375	-82.630638
20542.675781	-82.725388
20585.742188	-82.815063
20628.808594	-82.845909
20671.875000	-82.874496
20714.941406	-82.869514
20758.007812	-82.712372
20801.074219	-82.768646
20844.140625	-82.891037
20887.207031	-83.160156
20930.273438	-83.382835
20973.339844	-83.283226
21016.406250	-83.184441
21059.472656	-83.323524
21102.539062	-83.202141
21145.605469	-83.121170
21188.671875	-83.478554
21231.738281	-83.613243
21274.804688	-83.666573
21317.871094	-83.547691
21360.937500	-83.410118
21404.003906	-83.542900
21447.070312	-83.724251
21490.136719	-83.703705
21533.203125	-83.725822
21576.269531	-83.891129
21619.335938	-83.893593
21662.402344	-83.801743
21705.468750	-84.025589
21748.535156	-84.052719
21791.601562	-84.051247
21834.667969	-84.301598
21877.734375	-84.453064
21920.800781	-84.452690
21963.867188	-84.264206
22006.933594	-84.497269
