Frequency (Hz)	Level (dB)
43.066406	-19.743870
86.132812	-16.686869
129.199219	-16.730865
172.265625	-17.245214
215.332031	-17.903688
258.398438	-18.626431
301.464844	-19.323658
344.531250	-20.409515
387.597656	-21.452049
430.664062	-22.378277
473.730469	-22.950777
516.796875	-23.800564
559.863281	-24.730715
602.929688	-25.023365
645.996094	-25.744324
689.062500	-26.707554
732.128906	-27.827824
775.195312	-28.623520
818.261719	-29.135738
861.328125	-29.997629
904.394531	-31.022371
947.460938	-31.515795
990.527344	-31.586697
1033.593750	-32.336285
1076.660156	-32.924202
1119.726562	-33.350266
1162.792969	-34.041565
1205.859375	-34.702915
1248.925781	-35.386002
1291.992188	-35.949455
1335.058594	-36.711414
1378.125000	-37.196564
1421.191406	-37.943195
1464.257812	-38.643993
1507.324219	-38.952259
1550.390625	-39.143322
1593.457031	-40.003902
1636.523438	-40.723900
1679.589844	-40.707397
1722.656250	-40.630821
1765.722656	-41.177635
1808.789062	-41.813046
1851.855469	-42.264767
1894.921875	-42.961948
1937.988281	-43.088936
1981.054688	-43.726776
2024.121094	-44.132915
2067.187500	-44.206711
2110.253906	-44.542015
2153.320312	-44.908833
2196.386719	-45.206516
2239.453125	-45.257980
2282.519531	-44.884331
2325.585938	-45.174294
2368.652344	-45.841934
2411.718750	-46.531445
2454.785156	-47.062332
2497.851562	-47.292767
2540.917969	-47.537586
2583.984375	-47.678268
2627.050781	-47.747715
2670.117188	-48.150818
2713.183594	-48.456413
2756.250000	-48.429295
2799.316406	-48.836918
2842.382812	-49.111942
2885.449219	-49.211796
2928.515625	-49.688549
2971.582031	-50.402206
3014.648438	-50.999905
3057.714844	-51.024319
3100.781250	-51.036903
3143.847656	-51.046021
3186.914062	-51.323532
3229.980469	-51.504753
3273.046875	-51.912617
3316.113281	-51.904377
3359.179688	-52.324078
3402.246094	-52.468422
3445.312500	-52.966328
3488.378906	-53.810333
3531.445312	-53.234787
3574.511719	-53.545956
3617.578125	-53.894974
3660.644531	-53.828960
3703.710938	-53.642696
3746.777344	-54.066784
3789.843750	-54.457645
3832.910156	-54.699230
3875.976562	-54.921219
3919.042969	-55.822346
3962.109375	-56.733913
4005.175781	-56.200146
4048.242188	-56.133163
4091.308594	-56.179142
4134.375000	-56.117626
4177.441406	-56.722309
4220.507812	-57.139687
4263.574219	-57.342587
4306.640625	-57.457829
4349.707031	-57.774197
4392.773438	-58.450024
4435.839844	-58.833481
4478.906250	-58.762829
4521.972656	-59.246815
4565.039062	-59.635044
4608.105469	-59.761173
4651.171875	-59.743191
4694.238281	-59.717316
4737.304688	-59.961163
4780.371094	-59.705498
4823.437500	-59.926205
4866.503906	-60.612316
4909.570312	-60.994965
4952.636719	-60.912636
4995.703125	-61.158398
5038.769531	-61.667931
5081.835938	-61.721329
5124.902344	-61.920567
5167.968750	-61.948528
5211.035156	-61.804508
5254.101562	-62.271034
5297.167969	-62.623837
5340.234375	-62.758553
5383.300781	-62.954002
5426.367188	-63.207497
5469.433594	-63.628288
5512.500000	-64.152290
5555.566406	-64.109673
5598.632812	-64.088715
5641.699219	-64.562538
5684.765625	-64.594315
5727.832031	-64.764732
5770.898438	-65.340828
5813.964844	-65.255821
5857.031250	-65.118538
5900.097656	-65.326881
5943.164062	-65.753700
5986.230469	-66.090958
6029.296875	-66.366280
6072.363281	-66.539124
6115.429688	-66.337776
6158.496094	-66.598656
6201.562500	-67.180351
6244.628906	-67.075478
6287.695312	-67.169930
6330.761719	-67.418961
6373.828125	-67.444618
6416.894531	-67.639053
6459.960938	-67.973877
6503.027344	-67.825401
6546.093750	-68.313782
6589.160156	-68.385010
6632.226562	-68.572548
6675.292969	-68.237419
6718.359375	-68.641029
6761.425781	-68.935295
6804.492188	-69.128075
6847.558594	-69.414337
6890.625000	-70.107368
6933.691406	-69.832047
6976.757812	-69.689453
7019.824219	-70.203644
7062.890625	-70.487503
7105.957031	-70.451820
7149.023438	-70.434868
7192.089844	-70.302422
7235.156250	-70.338089
7278.222656	-71.150040
7321.289062	-71.832512
7364.355469	-71.924606
7407.421875	-72.218430
7450.488281	-72.129410
7493.554688	-72.149078
7536.621094	-72.122398
7579.687500	-72.109238
7622.753906	-72.056572
7665.820312	-72.094200
7708.886719	-72.019203
7751.953125	-72.179619
7795.019531	-72.323433
7838.085938	-72.302223
7881.152344	-73.046524
7924.218750	-73.309494
7967.285156	-73.320488
8010.351562	-73.698990
8053.417969	-73.478271
8096.484375	-73.504486
8139.550781	-73.751183
8182.617188	-73.877556
8225.683594	-74.295959
8268.750000	-74.324425
8311.816406	-74.113518
8354.882812	-74.347473
8397.949219	-74.443283
8441.015625	-74.499481
8484.082031	-74.444809
8527.148438	-74.627449
8570.214844	-75.040375
8613.281250	-75.228401
8656.347656	-75.265862
8699.414062	-75.232666
8742.480469	-75.745903
8785.546875	-75.621338
8828.613281	-75.414894
8871.679688	-75.578156
8914.746094	-75.798126
8957.812500	-75.755905
9000.878906	-75.500092
9043.945312	-75.578087
9087.011719	-75.930786
9130.078125	-76.123810
9173.144531	-75.975281
9216.210938	-76.896179
9259.277344	-76.821228
9302.343750	-76.932732
9345.410156	-77.014328
9388.476562	-76.372017
9431.542969	-76.653755
9474.609375	-76.149971
9517.675781	-76.145317
9560.742188	-76.306488
9603.808594	-77.043442
9646.875000	-77.234100
9689.941406	-77.311951
9733.007812	-77.363869
9776.074219	-77.508568
9819.140625	-77.003769
9862.207031	-77.198799
9905.273438	-77.190857
9948.339844	-77.169182
9991.406250	-77.273186
10034.472656	-77.217583
10077.539062	-77.410027
10120.605469	-77.235870
10163.671875	-77.909668
10206.738281	-78.047600
10249.804688	-78.040749
10292.871094	-78.198135
10335.937500	-77.903290
10379.003906	-77.629547
10422.070312	-77.990768
10465.136719	-78.151619
10508.203125	-78.112343
10551.269531	-78.088356
10594.335938	-78.102440
10637.402344	-78.026611
10680.468750	-78.543076
10723.535156	-78.370644
10766.601562	-78.369148
10809.667969	-78.108414
10852.734375	-78.098160
10895.800781	-78.147606
10938.867188	-78.290779
10981.933594	-78.543343
11025.000000	-78.777878
11068.066406	-78.911102
11111.132812	-79.248047
11154.199219	-78.932907
11197.265625	-78.828499
11240.332031	-78.855003
11283.398438	-78.940552
11326.464844	-78.919876
11369.531250	-78.428558
11412.597656	-78.385574
11455.664062	-78.802994
11498.730469	-78.992630
11541.796875	-78.839386
11584.863281	-78.810181
11627.929688	-78.811378
11670.996094	-79.230278
11714.062500	-79.097832
11757.128906	-78.772354
11800.195312	-78.783058
11843.261719	-79.027031
11886.328125	-79.231140
11929.394531	-79.122185
11972.460938	-79.034019
12015.527344	-79.181808
12058.593750	-79.277374
12101.660156	-79.338348
12144.726562	-79.843773
12187.792969	-79.846283
12230.859375	-79.645409
12273.925781	-79.385696
12316.992188	-79.296432
12360.058594	-79.226982
12403.125000	-79.486732
12446.191406	-79.611115
12489.257812	-79.522774
12532.324219	-79.666504
12575.390625	-79.817116
12618.457031	-80.066353
12661.523438	-80.036476
12704.589844	-80.086922
12747.656250	-80.059319
12790.722656	-80.256714
12833.789062	-80.260170
12876.855469	-80.018646
12919.921875	-80.126534
12962.988281	-79.758720
13006.054688	-79.957970
13049.121094	-80.086563
13092.187500	-80.031914
13135.253906	-80.783020
13178.320312	-80.323853
13221.386719	-80.221596
13264.453125	-80.307579
13307.519531	-80.514061
13350.585938	-80.384789
13393.652344	-80.436417
13436.718750	-80.534981
13479.785156	-80.434967
13522.851562	-80.171562
13565.917969	-80.555237
13608.984375	-80.354172
13652.050781	-80.465469
13695.117188	-80.630608
13738.183594	-80.417747
13781.250000	-80.633232
13824.316406	-80.716354
13867.382812	-80.807274
13910.449219	-80.625351
13953.515625	-80.712013
13996.582031	-81.240303
14039.648438	-81.242142
14082.714844	-80.846489
14125.781250	-81.158073
14168.847656	-81.211838
14211.914062	-80.579865
14254.980469	-80.926903
14298.046875	-81.127502
14341.113281	-80.822914
14384.179688	-80.850319
14427.246094	-80.956093
14470.312500	-81.057472
14513.378906	-80.743683
14556.445312	-80.960960
14599.511719	-81.205711
14642.578125	-81.116112
14685.644531	-80.782806
14728.710938	-80.933304
14771.777344	-81.092300
14814.843750	-81.507141
14857.910156	-81.447723
14900.976562	-81.483086
14944.042969	-81.367622
14987.109375	-81.497665
15030.175781	-81.587456
15073.242188	-81.874214
15116.308594	-81.494568
15159.375000	-81.030167
15202.441406	-81.467148
15245.507812	-81.575981
15288.574219	-81.423820
15331.640625	-81.386223
15374.707031	-81.509499
15417.773438	-81.637115
15460.839844	-81.585533
15503.906250	-81.792061
15546.972656	-82.025230
15590.039062	-82.276848
15633.105469	-82.040726
15676.171875	-81.764313
15719.238281	-81.885605
15762.304688	-82.062248
15805.371094	-82.169670
15848.437500	-81.864174
15891.503906	-82.181854
15934.570312	-82.454796
15977.636719	-82.182175
16020.703125	-82.129356
16063.769531	-82.153206
16106.835938	-82.176758
16149.902344	-82.071037
16192.968750	-82.363701
16236.035156	-82.552513
16279.101562	-82.428383
16322.167969	-82.100601
16365.234375	-82.106491
16408.300781	-82.088799
16451.367188	-82.595863
16494.433594	-82.928062
16537.500000	-82.536171
16580.566406	-82.387657
16623.632812	-82.303055
16666.699219	-82.280136
16709.765625	-82.966911
16752.832031	-82.666107
16795.898438	-82.372818
16838.964844	-82.474327
16882.031250	-82.482079
16925.097656	-82.701454
16968.164062	-82.787086
17011.230469	-82.646881
17054.296875	-82.741119
17097.363281	-82.946907
17140.429688	-83.063210
17183.496094	-83.020592
17226.562500	-82.844460
17269.628906	-83.060791
17312.695312	-82.966316
17355.761719	-82.652832
17398.828125	-82.980034
17441.894531	-82.903687
17484.960938	-82.993027
17528.027344	-83.240845
17571.093750	-83.559402
17614.160156	-83.291702
17657.226562	-83.267410
17700.292969	-83.393791
17743.359375	-83.513611
17786.425781	-83.347214
17829.492188	-83.368805
17872.558594	-83.083015
17915.625000	-83.422241
17958.691406	-83.666527
18001.757812	-83.984261
18044.824219	-83.904854
18087.890625	-84.051514
18130.957031	-83.613731
18174.023438	-83.315033
18217.089844	-83.562134
18260.156250	-84.148003
18303.222656	-84.385429
18346.289062	-84.070496
18389.355469	-84.284943
18432.421875	-84.301781
18475.488281	-83.825203
18518.554688	-83.766891
18561.621094	-84.080551
18604.687500	-83.774658
18647.753906	-83.913589
18690.820312	-84.052353
18733.886719	-84.315300
18776.953125	-83.800674
18820.019531	-83.636559
18863.085938	-83.817703
18906.152344	-83.876099
18949.218750	-84.202545
18992.285156	-84.091934
19035.351562	-83.804756
19078.417969	-83.905403
19121.484375	-84.104538
19164.550781	-84.141335
19207.617188	-84.102531
19250.683594	-84.164207
19293.750000	-83.897293
19336.816406	-84.333244
19379.882812	-84.582680
19422.949219	-84.539116
19466.015625	-84.646568
19509.082031	-85.008072
19552.148438	-84.818398
19595.214844	-84.108719
19638.281250	-84.463104
19681.347656	-84.658249
19724.414062	-84.565948
19767.480469	-84.804428
19810.546875	-84.781609
19853.613281	-84.974907
19896.679688	-84.730530
19939.746094	-84.822678
19982.812500	-84.906151
20025.878906	-85.422279
20068.945312	-85.428978
20112.011719	-84.947495
20155.078125	-84.997032
20198.144531	-85.077194
20241.210938	-85.052757
20284.277344	-85.037781
20327.343750	-85.501244
20370.410156	-85.435791
20413.476562	-85.242386
20456.542969	-85.032242
20499.609375	-85.125824
20542.675781	-85.016190
20585.742188	-85.202194
20628.808594	-85.472519
20671.875000	-85.650352
20714.941406	-85.645348
20758.007812	-85.354515
20801.074219	-85.023544
20844.140625	-85.336555
20887.207031	-85.762260
20930.273438	-85.846458
20973.339844	-86.012535
21016.406250	-85.950867
21059.472656	-86.201508
21102.539062	-85.772728
21145.605469	-85.748978
21188.671875	-85.806000
21231.738281	-85.984818
21274.804688	-86.242828
21317.871094	-86.311333
21360.937500	-86.251747
21404.003906	-85.854706
21447.070312	-86.055176
21490.136719	-86.144043
21533.203125	-86.482925
21576.269531	-86.406273
21619.335938	-86.183861
21662.402344	-86.359306
21705.468750	-86.897369
21748.535156	-86.671471
21791.601562	-86.492805
21834.667969	-86.951843
21877.734375	-87.613838
21920.800781	-88.095177
21963.867188	-87.655571
22006.933594	-87.439865
